# Pulseq sequence file
# Created by MATLAB mr toolbox

[VERSION]
major 1
minor 4
revision 1

[DEFINITIONS]
AdcRasterTime 1e-07 
BlockDurationRaster 1e-05 
FOV 0.256 0.256 0.192 0.256 0.256 0.192 0.003 
GradientRasterTime 1e-05 
Name Cn 
RadiofrequencyRasterTime 1e-06 
TotalDuration 0.1288 

# Format of blocks:
# NUM DUR RF  GX  GY  GZ  ADC  EXT
[BLOCKS]
  1 815   1   0   0   1  0  0
  2  92   0   4   2   3  0  0
  3  50   0   0   0   0  0  0
  4  92   0   5   6   7  1  0
  5  92   0   8   9  10  1  0
  6  92   0   5   9  10  1  0
  7  92   0   8   9  10  1  0
  8  92   0   5   9  11  1  0
  9  92   0   8   9  12  1  0
 10  92   0   5   9  10  1  0
 11  92   0   8   9  10  1  0
 12  92   0   5   9  10  1  0
 13  92   0   8   9  11  1  0
 14  92   0   5   9  12  1  0
 15  92   0   8   9  10  1  0
 16  92   0   5   9  10  1  0
 17  92   0   8   9  10  1  0
 18  92   0   5   9  11  1  0
 19  92   0   8   9  12  1  0
 20  92   0   5   9  10  1  0
 21  92   0   8   9  10  1  0
 22  92   0   5   9  10  1  0
 23  92   0   8   9  11  1  0
 24  92   0   5   9  12  1  0
 25  92   0   8   9  10  1  0
 26  92   0   5   9  10  1  0
 27  92   0   8   9  10  1  0
 28  92   0   5   9  11  1  0
 29  92   0   8   9  12  1  0
 30  92   0   5   9  10  1  0
 31  92   0   8   9  10  1  0
 32  92   0   5   9  10  1  0
 33  92   0   8   9  11  1  0
 34  92   0   5   9  12  1  0
 35  92   0   8   9  10  1  0
 36  92   0   5   9  10  1  0
 37  92   0   8   9  10  1  0
 38  92   0   5   9  11  1  0
 39  92   0   8   9  12  1  0
 40  92   0   5   9  10  1  0
 41  92   0   8   9  10  1  0
 42  92   0   5   9  10  1  0
 43  92   0   8   9  11  1  0
 44  92   0   5   9  12  1  0
 45  92   0   8   9  10  1  0
 46  92   0   5   9  10  1  0
 47  92   0   8   9  10  1  0
 48  92   0   5   9  11  1  0
 49  92   0   8   9  12  1  0
 50  92   0   5   9  10  1  0
 51  92   0   8   9  10  1  0
 52  92   0   5   9  10  1  0
 53  92   0   8   9  11  1  0
 54  92   0   5   9  12  1  0
 55  92   0   8   9  10  1  0
 56  92   0   5   9  10  1  0
 57  92   0   8   9  10  1  0
 58  92   0   5   9  11  1  0
 59  92   0   8   9  12  1  0
 60  92   0   5   9  10  1  0
 61  92   0   8   9  10  1  0
 62  92   0   5   9  10  1  0
 63  92   0   8   9  11  1  0
 64  92   0   5   9  12  1  0
 65  92   0   8   9  10  1  0
 66  92   0   5   9  10  1  0
 67  92   0   8   9  10  1  0
 68  92   0   5   9  11  1  0
 69  92   0   8   9  12  1  0
 70  92   0   5   9  10  1  0
 71  92   0   8   9  10  1  0
 72  92   0   5   9  10  1  0
 73  92   0   8   9  11  1  0
 74  92   0   5   9  12  1  0
 75  92   0   8   9  10  1  0
 76  92   0   5   9  10  1  0
 77  92   0   8   9  10  1  0
 78  92   0   5   9  11  1  0
 79  92   0   8   9  12  1  0
 80  92   0   5   9  10  1  0
 81  92   0   8   9  10  1  0
 82  92   0   5   9  10  1  0
 83  92   0   8   9  11  1  0
 84  92   0   5   9  12  1  0
 85  92   0   8   9  10  1  0
 86  92   0   5   9  10  1  0
 87  92   0   8   9  10  1  0
 88  92   0   5   9  11  1  0
 89  92   0   8   9  12  1  0
 90  92   0   5   9  10  1  0
 91  92   0   8   9  10  1  0
 92  92   0   5   9  10  1  0
 93  92   0   8   9  11  1  0
 94  92   0   5   9  12  1  0
 95  92   0   8   9  10  1  0
 96  92   0   5   9  10  1  0
 97  92   0   8   9  10  1  0
 98  92   0   5   9  11  1  0
 99  92   0   8   9  12  1  0
100  92   0   5   9  10  1  0
101  92   0   8   9  10  1  0
102  92   0   5   9  10  1  0
103  92   0   8   9  11  1  0
104  92   0   5   9  12  1  0
105  92   0   8   9  10  1  0
106  92   0   5   9  10  1  0
107  92   0   8   9  10  1  0
108  92   0   5   9  11  1  0
109  92   0   8   9  12  1  0
110  92   0   5   9  10  1  0
111  92   0   8   9  10  1  0
112  92   0   5   9  10  1  0
113  92   0   8   9  11  1  0
114  92   0   5   9  12  1  0
115  92   0   8   9  10  1  0
116  92   0   5   9  10  1  0
117  92   0   8   9  10  1  0
118  92   0   5   9  11  1  0
119  92   0   8   9  12  1  0
120  92   0   5   9  10  1  0
121  92   0   8   9  10  1  0
122  92   0   5   9  10  1  0
123  92   0   8   9  11  1  0
124  92   0   5   9  12  1  0
125  92   0   8   9  10  1  0
126  92   0   5   9  10  1  0
127  92   0   8   9  10  1  0
128  92   0   5   9  11  1  0
129  92   0   8   9  12  1  0
130  92   0   5   9  10  1  0
131  92   0   8  13  11  1  0
132 147   0   0   0  14  0  0

# Format of RF events:
# id amplitude mag_id phase_id time_shape_id delay freq phase
# ..        Hz   ....     ....          ....    us   Hz   rad
[RF]
1      488.182 1 2 0 100 0 0

# Format of arbitrary gradients:
#   time_shape_id of 0 means default timing (stepping with grad_raster starting at 1/2 of grad_raster)
# id amplitude amp_shape_id time_shape_id delay
# ..      Hz/m       ..         ..          us
[GRADIENTS]
6     -14467.6 3 4 780
7     -20833.3 3 5 780
9     -14467.6 6 7 0
10     -20833.3 6 8 0
11     -83333.3 9 8 0
12      83333.3 10 8 0
13     -14467.6 11 12 0

# Format of trapezoid gradients:
# id amplitude rise flat fall delay
# ..      Hz/m   us   us   us    us
[TRAP]
 1       166667  50 8000  50  50
 2       911458 270    0 270   0
 3  -1.1769e+06 350  220 350   0
 4      -976312 290    0 290 340
 5       845166 250  420 250   0
 8      -845166 250  420 250   0
14  1.19048e+06 350  770 350   0

# Format of ADC events:
# id num dwell delay freq phase
# ..  ..    ns    us   Hz   rad
[ADC]
1 136 4600 147 0 0

# Sequence Shapes
[SHAPES]

shape_id 1
num_samples 8000
2.12185067e-07
1.91705555e-06
5.33013074e-06
1.04260271e-05
1.7148923e-05
2.54125872e-05
3.51007232e-05
4.60676281e-05
5.81391617e-05
7.11140194e-05
8.47652983e-05
9.88423461e-05
0.000113072876
0.000127165333
0.000140811488
0.000153689246
0.000165465636
0.000175799961
0.000184347089
0.000190760839
0.000194697451
0.000195819104
0.000193797444
0.0001883171
0.000179079152
0.000165804525
0.000148237273
0.000126147716
9.93354279e-05
6.76320073e-05
3.09036417e-05
1.09465847e-05
5.79766518e-05
0.000110203857
0.000167603379
0.000230107177
0.00029760322
0.000369935083
0.0004469019
0.000528258688
0.00061371704
0.000702946195
0.000795574474
0.000891191081
0.000989348253
0.00108956376
0.00119132372
0.00129408574
0.00139728233
0.0015003246
0.00160260617
0.00170350732
0.00180239932
0.00189864889
0.00199162281
0.00208069259
0.0021652392
0.00224465782
0.00231836256
0.00238579109
0.00244640923
0.00249971538
0.00254524475
0.00258257343
0.00261132219
0.00263116004
0.00264180742
0.00264303917
0.002634687
0.00261664172
0.00258885495
0.00255134049
0.00250417517
0.00244749933
0.00238151678
0.00230649434
0.00222276083
0.00213070571
0.00203077714
0.00192347965
0.00180937134
0.00168906068
0.00156320286
0.00143249577
0.00129767562
0.00115951222
0.00101880393
0.000876372411
0.000733057044
0.000589709223
0.000447186465
0.000306346401
0.000168040706
3.31089932e-05
9.76272749e-05
0.00022337081
0.000343354415
0.000456846756
0.000563157926
0.000661644778
0.00075171597
0.000832836693
0.000904533031
0.00096639593
0.00101808473
0.00105933022
0.00108993726
0.00110978678
0.00111883736
0.00111712619
0.00110476943
0.0010819621
0.00104897725
0.00100616469
0.000953948971
0.000892826964
0.000823364739
0.000746193968
0.000662007774
0.000571556088
0.000475640513
0.000375108761
0.000270848669
0.00016378185
5.48570086e-05
5.49570188e-05
0.000164678467
0.000273320029
0.000379896381
0.00048343179
0.000582967743
0.000677570561
0.000766338921
0.000848411241
0.000922972873
0.00098926305
0.00104658152
0.00109429486
0.00113184231
0.00115874126
0.00117459215
0.00117908287
0.00117199262
0.00115319504
0.00112266083
0.00108045964
0.00102676123
0.000961835999
0.000886054711
0.000799887552
0.000703902413
0.000598762452
0.000485222939
0.00036412737
0.000236402907
0.000103055129
3.48378508e-05
0.00017613188
0.000319623842
0.00046405925
0.000608140341
0.000750534593
0.000889883629
0.00102481244
0.00115393889
0.00127588337
0.0013892787
0.00149277993
0.00158507434
0.0016648912
0.0017310115
0.00178227747
0.00181760176
0.00183597634
0.00183648102
0.0018182914
0.00178068641
0.00172305517
0.00164490326
0.00154585829
0.00142567471
0.00128423786
0.0011215672
0.000937818669
0.000733286184
0.00050840224
0.000263737589
1.07588103e-16
0.000281967909
0.000581191762
0.000896569422
0.0012268759
0.00157076912
0.00192679653
0.00229340258
0.00266893687
0.00305166311
0.00343976873
0.00383137508
0.00422454825
0.0046173103
0.00500765101
0.00539353986
0.00577293842
0.00614381282
0.0065041464
0.00685195237
0.00718528642
0.00750225921
0.00780104862
0.00807991171
0.00833719632
0.00857135216
0.00878094138
0.00896464858
0.00912129002
0.00924982219
0.00934934952
0.00941913118
0.009458587
0.00946730242
0.00944503239
0.00939170427
0.00930741959
0.00919245475
0.00904726063
0.00887246106
0.00866885013
0.00843738849
0.00817919847
0.00789555814
0.00758789442
0.00725777505
0.00690689976
0.00653709035
0.00615028011
0.00574850234
0.00533387819
0.00490860385
0.00447493721
0.00403518403
0.00359168368
0.00314679467
0.00270287988
0.00226229181
0.00182735765
0.0014003646
0.000983545296
0.000579063509
0.000189000275
0.000184659536
0.000540040075
0.000875386712
0.00118907749
0.00147963376
0.00174572994
0.00198620224
0.00220005643
0.00238647451
0.00254482014
0.00267464306
0.00277568209
0.00284786703
0.00289131926
0.00290635098
0.00289346324
0.00285334271
0.00278685708
0.00269504936
0.00257913081
0.00244047286
0.00228059776
0.00210116825
0.00190397622
0.00169093037
0.00146404308
0.00122541649
0.000977227835
0.000721714293
0.000461157234
0.000197866142
6.58377595e-05
0.000327638068
0.000585239818
0.000836386048
0.00107887421
0.00131057231
0.00152943464
0.00173351706
0.00192099163
0.00209016057
0.0022394694
0.00236751918
0.00247307777
0.00255509001
0.00261268674
0.00264519261
0.0026521326
0.00263323724
0.00258844635
0.00251791149
0.00242199684
0.00230127871
0.00215654354
0.00198878438
0.00179919601
0.00158916854
0.00136027963
0.00111428536
0.000853109749
0.000578833056
0.000293678848
1.6362988e-16
0.000299736358
0.000602964819
0.000907038509
0.00120924664
0.00150683265
0.0017970129
0.00207699567
0.00234400048
0.00259527755
0.00282812715
0.00303991897
0.00322811113
0.00339026883
0.00352408249
0.00362738526
0.00369816972
0.00373460378
0.00373504549
0.00369805683
0.00362241627
0.00350713002
0.00335144191
0.00315484184
0.00291707266
0.00263813549
0.00231829341
0.00195807346
0.00155826698
0.00111992816
0.000644370976
0.000133164292
0.000411874632
0.000988688366
0.00159498914
0.00222827027
0.00288581906
0.00356473123
0.00426192662
0.00497416623
0.00569807038
0.00643013803
0.0071667669
0.00790427456
0.00863892015
0.00936692663
0.0100845035
0.0107878698
0.0114732773
0.0121370333
0.0127755239
0.0133852366
0.0139627821
0.0145049163
0.0150085608
0.0154708229
0.0158890144
0.0162606697
0.0165835616
0.0168557171
0.0170754303
0.017241275
0.0173521147
0.017407111
0.017405731
0.0173477513
0.0172332617
0.0170626658
0.0168366805
0.0165563323
0.0162229535
0.0158381745
0.0154039155
0.014922376
0.0143960223
0.0138275734
0.0132199854
0.0125764341
0.0119002962
0.0111951293
0.0104646508
0.00971271516
0.00894329077
0.00816043586
0.00736827368
0.00657096728
0.00577269388
0.00497761919
0.00418987162
0.00341351676
0.00265253209
0.00191078229
0.00119199513
0.000499738259
0.000162603088
0.000791847239
0.00138503596
0.00193945293
0.00245264069
0.00292241596
0.00334688319
0.00372444626
0.00405381824
0.00433402922
0.00456443198
0.00474470561
0.00487485702
0.00495522019
0.0049864534
0.0049695342
0.00490575233
0.00479670049
0.00464426313
0.00445060327
0.0042181474
0.00394956859
0.00364776799
0.00331585463
0.00295712386
0.00257503447
0.00217318463
0.00175528686
0.00132514208
0.000886613064
0.00044359739
1.85702102e-16
0.000440294312
0.0008734484
0.00129570003
0.00170338874
0.00209298212
0.00246110125
0.00280454534
0.00312031509
0.00340563489
0.00365797354
0.00387506339
0.00405491779
0.00419584672
0.00429647037
0.00435573078
0.00437290125
0.00434759362
0.00427976313
0.00416971111
0.00401808518
0.0038258772
0.00359441871
0.00332537412
0.00302073154
0.00268279131
0.00231415234
0.00191769632
0.00149656982
0.00105416457
0.000594095766
0.000120178823
0.00036359549
0.000853087281
0.00134403499
0.00183208391
0.00231281552
0.00278177756
0.00323451456
0.00366659864
0.00407366039
0.00445141966
0.00479571596
0.0051025384
0.00536805483
0.00558864011
0.00576090319
0.00588171294
0.00594822243
0.00595789163
0.00590850821
0.00579820641
0.00562548381
0.00538921581
0.00508866789
0.00472350525
0.00429380013
0.00380003638
0.00324311149
0.00262433595
0.00194542986
0.001208517
0.000416116092
0.000428870442
0.00132317032
0.00226315775
0.00324487211
0.00426403901
0.00531609348
0.00639620517
0.0074993055
0.00862011647
0.00975318107
0.0108928951
0.0120335399
0.0131693165
0.01429438
0.0154028752
0.0164889714
0.0175468986
0.0185709827
0.0195556805
0.0204956143
0.0213856057
0.0222207077
0.0229962367
0.0237078023
0.024351335
0.0249231134
0.025419788
0.0258384038
0.0261764198
0.0264317268
0.0266026617
0.0266880198
0.0266870644
0.0265995325
0.0264256389
0.0261660762
0.0258220128
0.0253950871
0.0248873993
0.0243015002
0.0236403766
0.0229074351
0.0221064817
0.0212417004
0.020317628
0.0193391278
0.0183113601
0.0172397519
0.0161299635
0.0149878552
0.013819451
0.0126309025
0.011428451
0.0102183897
0.0090070251
0.00780063822
0.00660544609
0.00542756356
0.00427296567
0.00314745085
0.00205660524
0.00100576831
2.3759665e-16
0.000955950325
0.00185767303
0.00270112517
0.00348265508
0.00419902457
0.00484742829
0.00542551052
0.00593137887
0.0063636151
0.00672128279
0.00700393192
0.00721160026
0.00734481159
0.00740457065
0.00739235505
0.00731010395
0.00716020378
0.00694547092
0.00666913156
0.00633479881
0.00594644722
0.0055083849
0.00502522332
0.00450184508
0.00394336989
0.00335511879
0.00274257707
0.00211135598
0.00146715358
0.00081571483
0.000162791429
0.000485898582
0.00112471102
0.00174811537
0.00235073391
0.0029273799
0.00347309455
0.00398318262
0.00445324621
0.00487921672
0.00525738465
0.00558442702
0.00585743228
0.00607392247
0.00623187256
0.0063297267
0.00636641138
0.00634134532
0.00625444609
0.00610613326
0.00589732822
0.00562945052
0.00530441082
0.00492460039
0.00449287735
0.00401254956
0.00348735445
0.00292143566
0.00231931695
0.00168587318
0.00102629887
0.000346074268
0.000349070643
0.00105319415
0.00176018247
0.00246379085
0.00315768586
0.00383548854
0.00449081824
0.00511733675
0.00570879244
0.00625906423
0.00676220494
0.0072124839
0.00760442835
0.00793286351
0.00819295097
0.00838022516
0.00849062761
0.0085205388
0.00846680745
0.00832677683
0.00809830814
0.00777980063
0.00737020839
0.00686905362
0.00627643636
0.00559304047
0.00482013595
0.00395957739
0.00301379872
0.00198580414
0.0008791553
0.00030204518
0.00155317378
0.00286910967
0.00424426159
0.00567259798
0.00714768014
0.00866269817
0.0102105095
0.01178368
0.0133745267
0.0149751633
0.016577546
0.0181735218
0.0197548773
0.0213133877
0.0228408673
0.0243292189
0.0257704839
0.0271568908
0.028480904
0.0297352703
0.0309130646
0.0320077334
0.0330131364
0.0339235856
0.0347338821
0.0354393494
0.0360358641
0.0365198832
0.0368884681
0.0371393041
0.0372707171
0.0372816863
0.0371718517
0.0369415192
0.0365916603
0.0361239084
0.0355405505
0.034844515
0.0340393557
0.0331292315
0.0321188824
0.0310136019
0.0298192058
0.028541998
0.0271887324
0.0257665729
0.0242830499
0.0227460152
0.0211635942
0.0195441367
0.017896166
0.0162283269
0.0145493332
0.0128679143
0.0111927617
0.00953247604
0.00789551425
0.00629013794
0.00472436279
0.00320590955
0.00174215694
0.000340096632
0.000993709205
0.0022531677
0.00343269202
0.00452723487
0.00553231857
0.00644406135
0.00725919995
0.00797510808
0.00858981082
0.00910199478
0.009511014
0.00981689139
0.0100203159
0.0101226354
0.0101258449
0.0100325712
0.00984605248
0.00957011482
0.00920914404
0.00876805433
0.00825225317
0.00766760305
0.00702038016
0.00631723021
0.00556512195
0.00477129831
0.00394322586
0.00308854263
0.00221500478
0.0013304324
0.000442654915
0.000440543763
0.00131147971
0.00216262295
0.00298665039
0.0037764975
0.00452540823
0.00522698306
0.00587522459
0.00646458055
0.00698998393
0.0074468898
0.00783130873
0.00813983652
0.00836967999
0.00851867871
0.00858532247
0.00856876433
0.0084688293
0.00828601832
0.00802150776
0.00767714422
0.00725543481
0.0067595328
0.00619321888
0.00556087799
0.00486747197
0.0041185081
0.00332000382
0.00247844772
0.00160075724
0.000694233083
0.000233489126
0.00117448976
0.00212061835
0.00306354859
0.00399483491
0.00490597015
0.00578844409
0.0066338023
0.00743370507
0.00817998589
0.00886470924
0.0094802272
0.0100192345
0.0104748217
0.0108405262
0.0111103804
0.0112789571
0.011341412
0.0112935217
0.011131719
0.0108531233
0.0104555673
0.00993761883
0.00929859817
0.00853859078
0.0076584548
0.00665982391
0.00554510494
0.00431747067
0.00298084749
0.00153989821
2.79936231e-16
0.00163278244
0.00335172821
0.00514949604
0.00701816423
0.0089492746
0.0109338801
0.0129625958
0.0150256531
0.0171129565
0.0192141429
0.0213186431
0.0234157445
0.0254946553
0.0275445701
0.0295547347
0.0315145122
0.033413448
0.0352413339
0.0369882716
0.038644734
0.0402016244
0.0416503342
0.0429827963
0.0441915369
0.0452697228
0.0462112052
0.0470105595
0.0476631206
0.048165014
0.0485131811
0.048705401
0.0487403058
0.0486173912
0.0483370221
0.0479004324
0.0473097192
0.0465678321
0.0456785573
0.0446464955
0.0434770359
0.0421763246
0.0407512282
0.039209293
0.0375587
0.0358082158
0.0339671397
0.0320452474
0.0300527322
0.0280001425
0.025898318
0.0237583239
0.0215913828
0.0194088068
0.0172219282
0.0150420304
0.012880279
0.0107476535
0.00865488057
0.00661236875
0.00463014499
0.0027177939
0.000884399749
0.000861508297
0.00251200739
0.00405982826
0.00549839831
0.00682188018
0.00802520549
0.00910410374
0.0100551259
0.0108756629
0.011563958
0.0121191149
0.0125410987
0.0128307326
0.0129896878
0.0130204693
0.0129263945
0.0127115682
0.0123808514
0.011939825
0.01139475
0.0107525218
0.0100206211
0.00920706081
0.0083203296
0.00736933192
0.00636332561
0.00531185702
0.00422469427
0.00311175899
0.00198305707
0.000848608797
0.000281621116
0.00139779311
0.00249026157
0.0035496424
0.00456687878
0.00553330481
0.0064407066
0.00728138032
0.00804818684
0.00873460268
0.0093347668
0.00984352297
0.0102564574
0.0105699315
0.0107811093
0.0108879793
0.0108893714
0.0107849673
0.0105753056
0.010261781
0.00984663784
0.0093329572
0.00872463901
0.008026378
0.00724363437
0.00638259906
0.00545015389
0.0044538269
0.00340174298
0.00230257039
0.00116546314
2.82126987e-16
0.00118387982
0.00237594368
0.00356573487
0.00474264388
0.005895981
0.00701505
0.00808922211
0.00910801014
0.0100611419
0.0109386329
0.0117308571
0.0124286161
0.0130232062
0.0135064812
0.0138709141
0.0141096529
0.0142165736
0.0141863285
0.0140143896
0.0136970866
0.0132316401
0.012616189
0.0118498115
0.0109325411
0.00986537577
0.00865028103
0.00729018711
0.00578897952
0.00415148351
0.00238344239
0.000491489815
0.00151688383
0.00363337072
0.00584889034
0.00815363945
0.0105371469
0.0129883331
0.0154955736
0.0180467663
0.0206294026
0.023230641
0.0258373831
0.0284363523
0.0310141732
0.0335574524
0.03605286
0.0384872105
0.0408475438
0.0431212047
0.045295921
0.0473598796
0.0493017999
0.0511110039
0.0527774839
0.0542919646
0.0556459623
0.0568318387
0.0578428498
0.0586731889
0.059318025
0.059773534
0.0600369246
0.0601064575
0.0599814581
0.0596623228
0.0591505184
0.0584485751
0.0575600728
0.056489621
0.0552428317
0.0538262869
0.0522474995
0.0505148682
0.0486376276
0.0466257919
0.0444900952
0.0422419259
0.0398932574
0.037456576
0.0349448043
0.0323712224
0.0297493872
0.0270930498
0.0244160709
0.0217323372
0.0190556759
0.016399771
0.0137780795
0.0112037504
0.00868954417
0.00624775585
0.00389014096
0.00162784474
0.000528664553
0.00256965791
0.00448620306
0.00627021676
0.0079145116
0.00941283698
0.010759914
0.0119514639
0.0129842304
0.0138559948
0.0145655849
0.0151128766
0.0154987894
0.0157252741
0.0157952947
0.0157128034
0.0154827087
0.0151108381
0.0146038944
0.013969406
0.0132156724
0.0123517042
0.011387159
0.0103322724
0.00919778572
0.00799487064
0.00673505031
0.00543011886
0.00409205889
0.0027329578
0.0013649235
1.62231743e-16
0.00134991651
0.00267316054
0.00395837864
0.00519460856
0.00637135586
0.00747866726
0.0085072004
0.0094482895
0.0102940064
0.0110372167
0.0116716304
0.0121918473
0.0125933957
0.0128727652
0.0130274332
0.0130558845
0.0129576238
0.0127331816
0.0123841133
0.0119129908
0.0113233874
0.010619856
0.00980790014
0.00889393897
0.00788526549
0.00678999889
0.00561703108
0.00437596772
0.00307706424
0.0017311572
0.000349591425
0.00105585664
0.00247305874
0.00388961742
0.00529295081
0.006670379
0.00800921151
0.0092968353
0.0105208026
0.0116689181
0.0127293252
0.0136905895
0.0145417814
0.0152725544
0.0158732205
0.0163348221
0.0166491985
0.0168090483
0.0168079859
0.016640593
0.0163024631
0.0157902405
0.015101652
0.0142355321
0.013191841
0.0119716751
0.0105772708
0.00901200008
0.00728035975
0.00538795239
0.00334146061
0.00114861411
0.00118185022
0.00364023479
0.00621593426
0.00889749451
0.0116726774
0.0145285306
0.0174514629
0.020427323
0.0234414831
0.0264789255
0.029524332
0.0325621757
0.0355768145
0.0385525859
0.0414739018
0.0443253437
0.0470917571
0.0497583445
0.0523107563
0.0547351799
0.0570184248
0.059148005
0.0611122167
0.0629002112
0.0645020634
0.0659088342
0.0671126268
0.0681066373
0.0688851976
0.0694438126
0.0697791892
0.0698892583
0.0697731891
0.0694313957
0.0688655364
0.0680785048
0.0670744132
0.0658585689
0.0644374427
0.0628186298
0.0610108049
0.059023669
0.0568678912
0.0545550435
0.0520975303
0.0495085131
0.0468018298
0.0439919105
0.0410936892
0.0381225122
0.0350940451
0.0320241765
0.028928921
0.0258243219
0.0227263534
0.0196508233
0.0166132769
0.0136289033
0.0107124432
0.00787810047
0.00513945671
0.00250939032
3.11865435e-16
0.00237746656
0.00461267846
0.0066962813
0.00861995058
0.0103764383
0.0119596128
0.0133644905
0.0145872616
0.0156253067
0.0164772065
0.0171427433
0.0176228953
0.0179198223
0.018036844
0.0179784116
0.0177500706
0.0173584179
0.0168110511
0.016116512
0.0152842233
0.0143244208
0.0132480789
0.0120668324
0.010792894
0.00943896747
0.00801815842
0.00654388227
0.00502977027
0.0034895743
0.00193707105
0.000385966113
0.00115020128
0.00265815229
0.00412496064
0.00553814228
0.00688574204
0.00815641656
0.00933951309
0.0104251435
0.0114042532
0.0122686842
0.0130112322
0.0136256972
0.014106927
0.0144508544
0.0146545257
0.0147161231
0.0146349782
0.014411578
0.0140475639
0.0135457212
0.0129099623
0.012145301
0.0112578205
0.0102546326
0.0091438309
0.00793443702
0.00663633981
0.0052602291
0.00381752361
0.00232029364
0.000781179204
0.000786696003
0.0023698142
0.00395435606
0.00552629568
0.0070714972
0.00857581261
0.01002518
0.0114057216
0.0127038409
0.0139063187
0.0150004064
0.015973917
0.0168153127
0.0175137887
0.0180593518
0.0184428952
0.0186562664
0.0186923305
0.0185450258
0.0182094137
0.0176817205
0.0169593726
0.0160410234
0.0149265726
0.0136171775
0.012115256
0.0104244816
0.00854977025
0.00649725866
0.00427427539
0.0018893035
0.000648064074
0.00332717661
0.00613638462
0.00906310557
0.0120938958
0.0152145282
0.0184100753
0.0216649972
0.0249632331
0.0282882977
0.0316233795
0.0349514418
0.0382553261
0.0415178558
0.0447219407
0.0478506815
0.0508874729
0.0538161056
0.0566208661
0.0592866333
0.0617989719
0.0641442219
0.066309583
0.0682831945
0.0700542087
0.0716128585
0.0729505188
0.0740597604
0.0749343964
0.0755695214
0.0759615427
0.0761082031
0.0760085954
0.0756631693
0.0750737287
0.0742434214
0.0731767204
0.0718793968
0.0703584842
0.0686222365
0.0666800765
0.0645425388
0.0622212048
0.0597286314
0.0570782742
0.0542844046
0.0513620222
0.0483267626
0.0451948016
0.0419827557
0.0387075809
0.0353864683
0.0320367394
0.0286757408
0.025320738
0.021988811
0.0186967509
0.0154609583
0.0122973449
0.00922123851
0.00624729099
0.00338939216
0.000660587833
0.0019269962
0.00436222415
0.00663501366
0.00873639232
0.0106585469
0.0123948649
0.0139399684
0.0152897397
0.0164413388
0.0173932126
0.0181450955
0.0186980021
0.0190542114
0.0192172423
0.019191822
0.0189838459
0.0186003304
0.0180493584
0.0173400175
0.0164823328
0.0154871927
0.0143662699
0.013131937
0.0117971784
0.0103754973
0.00888082094
0.00732740183
0.00572971829
0.00410237303
0.00245999146
0.000817120057
0.000811874528
0.00241290484
0.00397225996
0.0054767
0.00691354733
0.00827077377
0.00953708319
0.0107019891
0.0117558866
0.0126901181
0.0134970329
0.0141700393
0.01470365
0.0150935195
0.0153364739
0.0154305331
0.0153749237
0.015170085
0.0148176657
0.0143205133
0.013682654
0.0129092661
0.0120066442
0.0109821565
0.00984419441
0.00860211544
0.00726617904
0.00584747645
0.00435785476
0.00280983561
0.00121652921
0.000408455778
0.00205110603
0.00369710019
0.00533190793
0.00694089057
0.00850940276
0.0100228945
0.0114670127
0.0128277019
0.014091303
0.0152446503
0.0162751643
0.0171709425
0.0179208447
0.0185145741
0.0189427529
0.0191969921
0.0192699554
0.0191554156
0.0188483043
0.0183447543
0.0176421344
0.0167390753
0.0156354884
0.0143325757
0.0128328318
0.0111400366
0.00925924089
0.0071967425
0.00496005493
0.00255786788
6.92468847e-16
0.00270265573
0.00553819371
0.00849376415
0.0115556477
0.0147093361
0.0179396174
0.0212306673
0.0245661429
0.0279292815
0.0313030013
0.0346700052
0.0380128853
0.0413142294
0.0445567269
0.0477232744
0.0507970812
0.0537617712
0.0566014843
0.0593009735
0.0618456985
0.0642219157
0.0664167621
0.0684183354
0.0702157663
0.0717992863
0.073160287
0.0742913738
0.0751864105
0.0758405573
0.0762503003
0.0764134724
0.0763292665
0.0759982398
0.0754223095
0.0746047406
0.0735501247
0.0722643512
0.0707545698
0.0690291458
0.0670976074
0.0649705862
0.0626597511
0.060177735
0.0575380567
0.0547550365
0.0518437081
0.0488197249
0.0456992635
0.0424989244
0.0392356295
0.0359265187
0.0325888446
0.0292398677
0.0258967513
0.0225764574
0.0192956448
0.0160705684
0.0129169826
0.00985004753
0.00688423935
0.00403326573
0.00130998615
0.00127366191
0.00370673061
0.00597932282
0.00808264617
0.0100090598
0.0117521133
0.0133065786
0.0146684725
0.0158350723
0.0168049227
0.0175778343
0.0181548743
0.0185383487
0.0187317767
0.0187398574
0.0185684288
0.0182244192
0.0177157925
0.0170514865
0.0162413445
0.0152960424
0.0142270097
0.0130463463
0.0117667352
0.0104013514
0.00896376872
0.00746786308
0.00592771552
0.00435751342
0.00277145169
0.00118363431
0.000392023173
0.00194188948
0.00345271114
0.00491170316
0.00630663621
0.00762591967
0.0088586802
0.00999483505
0.0110251599
0.0119413505
0.0127360782
0.013403038
0.0139369907
0.014333796
0.0145904396
0.014705052
0.0146769187
0.0145064836
0.014195344
0.0137462375
0.0131630212
0.012450644
0.01161511
0.0106634363
0.00960360252
0.00844449484
0.00719584317
0.00586815289
0.00447263117
0.00302110858
0.00152595636
9.44358896e-16
0.00154357028
0.00309129165
0.00462952268
0.00614453865
0.0076226275
0.00905018583
0.0104138143
0.0117004117
0.0128972673
0.0139921505
0.0149733974
0.0158299942
0.0165516557
0.0171288994
0.0175531144
0.0178166247
0.0179127461
0.0178358371
0.0175813422
0.0171458293
0.0165270184
0.0157238042
0.0147362694
0.0135656919
0.0122145428
0.0106864776
0.00898631905
0.00712003235
0.00509469343
0.00291844934
0.000600471982
0.001849095
0.00441919566
0.00709792721
0.00987261095
0.0127298684
0.0156557019
0.0186355795
0.0216545231
0.0246971998
0.0277480153
0.0307912095
0.0338109528
0.0367914433
0.0397170036
0.042572177
0.0453418222
0.0480112063
0.0505660952
0.0529928408
0.0552784639
0.0574107345
0.0593782455
0.0611704823
0.0627778866
0.0641919142
0.0654050859
0.0664110323
0.0672045313
0.0677815386
0.0681392105
0.0682759193
0.0681912611
0.0678860561
0.0673623408
0.0666233534
0.0656735108
0.0645183789
0.0631646359
0.0616200284
0.059893321
0.0579942399
0.0559334108
0.0537222908
0.0513730959
0.0488987242
0.0463126742
0.0436289606
0.040862027
0.0380266558
0.035137877
0.0322108757
0.0292608987
0.0263031617
0.0233527568
0.0204245614
0.0175331488
0.0146927014
0.011916927
0.00921897779
0.00661137455
0.00410593421
0.00171370293
0.00055510561
0.00269116631
0.00468609262
0.00653248022
0.00822394409
0.00975514877
0.0111218317
0.0123208193
0.0133500364
0.0142085075
0.0148963522
0.0154147723
0.0157660327
0.0159534351
0.0159812855
0.0158548547
0.0155803334
0.0151647813
0.0146160706
0.0139428246
0.0131543524
0.0122605783
0.0112719687
0.0101994554
0.00905435624
0.00784829399
0.00659311348
0.00530079799
0.00398338519
0.00265288327
0.00132118781
3.50683291e-16
0.00129925336
0.00256549746
0.00378808419
0.00495686357
0.00606225124
0.00709529176
0.00804771728
0.00891200109
0.00968140585
0.0103500261
0.010912825
0.0113656646
0.0117053301
0.0119295475
0.0120369945
0.0120273052
0.011901068
0.0116598167
0.0113060154
0.0108430371
0.0102751356
0.00960741232
0.00884577635
0.00799689988
0.00706816812
0.00606762452
0.00500391168
0.00388620823
0.00272416223
0.00152782151
0.00030756139
0.000925989613
0.00216202573
0.00338964087
0.00459790616
0.00577594742
0.00691302216
0.0079985956
0.00902241503
0.00997458226
0.0108456235
0.0116265563
0.0123089529
0.012885
0.0133475542
0.0136901929
0.0139072598
0.0139939063
0.0139461262
0.0137607853
0.0134356454
0.0129693819
0.0123615948
0.0116128149
0.0107245023
0.00969903989
0.00853971975
0.0072507244
0.00583710163
0.00430473384
0.00266030191
0.000911243792
0.000934291742
0.00286749601
0.00487895559
0.00695871128
0.00909632071
0.0112809238
0.013501311
0.0157459937
0.0180032759
0.020261328
0.0225082603
0.0247321973
0.0269213518
0.0290640979
0.031149043
0.0331650984
0.035101547
0.0369481094
0.0386950061
0.0403330169
0.0418535365
0.0432486256
0.0445110579
0.0456343624
0.0466128607
0.0474416988
0.048116874
0.0486352559
0.0489946023
0.0491935683
0.0492317112
0.0491094883
0.0488282495
0.0483902247
0.0477985051
0.0470570191
0.0461705038
0.0451444706
0.0439851665
0.0426995316
0.041295151
0.0397802047
0.0381634124
0.0364539768
0.034661523
0.0327960361
0.0308677977
0.0288873194
0.0268652772
0.0248124441
0.0227396229
0.02065758
0.0185769792
0.0165083172
0.0144618606
0.0124475852
0.0104751172
0.00855367803
0.00669203149
0.00489843492
0.00318059398
0.00154562137
4.15434047e-16
0.00145044945
0.00280059631
0.00404602286
0.00518304233
