# Pulseq sequence file
# Created by MATLAB mr toolbox

[VERSION]
major 1
minor 4
revision 1

[DEFINITIONS]
AdcRasterTime 1e-07 
BlockDurationRaster 1e-05 
FOV 0.256 0.256 0.192 0.256 0.256 0.192 0.003 
GradientRasterTime 1e-05 
Name Cn4 
RadiofrequencyRasterTime 1e-06 
TotalDuration 0.29086 

# Format of blocks:
# NUM DUR RF  GX  GY  GZ  ADC  EXT
[BLOCKS]
  1 815   1   0   0   1  0  0
  2  92   0   4   2   3  0  0
  3  32   0   0   0   5  0  0
  4 140   0   6   7   0  1  0
  5 140   0   8   9   0  1  0
  6 140   0   6   9   0  1  0
  7 140   0   8   9   0  1  0
  8 140   0   6   9   0  1  0
  9 140   0   8   9   0  1  0
 10 140   0   6   9   0  1  0
 11 140   0   8   9   0  1  0
 12 140   0   6   9   0  1  0
 13 140   0   8   9   0  1  0
 14 140   0   6   9   0  1  0
 15 140   0   8   9   0  1  0
 16 140   0   6   9   0  1  0
 17 140   0   8   9   0  1  0
 18 140   0   6   9   0  1  0
 19 140   0   8   9   0  1  0
 20 140   0   6   9   0  1  0
 21 140   0   8   9   0  1  0
 22 140   0   6   9   0  1  0
 23 140   0   8   9   0  1  0
 24 140   0   6   9   0  1  0
 25 140   0   8   9   0  1  0
 26 140   0   6   9   0  1  0
 27 140   0   8   9   0  1  0
 28 140   0   6   9   0  1  0
 29 140   0   8   9   0  1  0
 30 140   0   6   9   0  1  0
 31 140   0   8   9   0  1  0
 32 140   0   6   9   0  1  0
 33 140   0   8   9   0  1  0
 34 140   0   6   9   0  1  0
 35 140   0   8   9   0  1  0
 36 140   0   6   9   0  1  0
 37 140   0   8   9   0  1  0
 38 140   0   6   9   0  1  0
 39 140   0   8   9   0  1  0
 40 140   0   6   9   0  1  0
 41 140   0   8   9   0  1  0
 42 140   0   6   9   0  1  0
 43 140   0   8   9   0  1  0
 44 140   0   6   9   0  1  0
 45 140   0   8   9   0  1  0
 46 140   0   6   9   0  1  0
 47 140   0   8   9   0  1  0
 48 140   0   6   9   0  1  0
 49 140   0   8   9   0  1  0
 50 140   0   6   9   0  1  0
 51 140   0   8   9   0  1  0
 52 140   0   6   9   0  1  0
 53 140   0   8   9   0  1  0
 54 140   0   6   9   0  1  0
 55 140   0   8   9   0  1  0
 56 140   0   6   9   0  1  0
 57 140   0   8   9   0  1  0
 58 140   0   6   9   0  1  0
 59 140   0   8   9   0  1  0
 60 140   0   6   9   0  1  0
 61 140   0   8   9   0  1  0
 62 140   0   6   9   0  1  0
 63 140   0   8   9   0  1  0
 64 140   0   6   9   0  1  0
 65 140   0   8   9   0  1  0
 66 140   0   6   9   0  1  0
 67 140   0   8   9   0  1  0
 68 140   0   6   9   0  1  0
 69 140   0   8   9   0  1  0
 70 140   0   6   9   0  1  0
 71 140   0   8   9   0  1  0
 72 140   0   6   9   0  1  0
 73 140   0   8   9   0  1  0
 74 140   0   6   9   0  1  0
 75 140   0   8   9   0  1  0
 76 140   0   6   9   0  1  0
 77 140   0   8   9   0  1  0
 78 140   0   6   9   0  1  0
 79 140   0   8   9   0  1  0
 80 140   0   6   9   0  1  0
 81 140   0   8   9   0  1  0
 82 140   0   6   9   0  1  0
 83 140   0   8   9   0  1  0
 84 140   0   6   9   0  1  0
 85 140   0   8   9   0  1  0
 86 140   0   6   9   0  1  0
 87 140   0   8   9   0  1  0
 88 140   0   6   9   0  1  0
 89 140   0   8   9   0  1  0
 90 140   0   6   9   0  1  0
 91 140   0   8   9   0  1  0
 92 140   0   6   9   0  1  0
 93 140   0   8   9   0  1  0
 94 140   0   6   9   0  1  0
 95 140   0   8   9   0  1  0
 96 140   0   6   9   0  1  0
 97 140   0   8   9   0  1  0
 98 140   0   6   9   0  1  0
 99 140   0   8   9   0  1  0
100 140   0   6   9   0  1  0
101 140   0   8   9   0  1  0
102 140   0   6   9   0  1  0
103 140   0   8   9   0  1  0
104 140   0   6   9   0  1  0
105 140   0   8   9   0  1  0
106 140   0   6   9   0  1  0
107 140   0   8   9   0  1  0
108 140   0   6   9   0  1  0
109 140   0   8   9   0  1  0
110 140   0   6   9   0  1  0
111 140   0   8   9   0  1  0
112 140   0   6   9   0  1  0
113 140   0   8   9   0  1  0
114 140   0   6   9   0  1  0
115 140   0   8   9   0  1  0
116 140   0   6   9   0  1  0
117 140   0   8   9   0  1  0
118 140   0   6   9   0  1  0
119 140   0   8   9   0  1  0
120 140   0   6   9   0  1  0
121 140   0   8   9   0  1  0
122 140   0   6   9   0  1  0
123 140   0   8   9   0  1  0
124 140   0   6   9   0  1  0
125 140   0   8   9   0  1  0
126 140   0   6   9   0  1  0
127 140   0   8   9   0  1  0
128 140   0   6   9   0  1  0
129 140   0   8   9   0  1  0
130 140   0   6   9   0  1  0
131 140   0   8   9   0  1  0
132 140   0   6   9   0  1  0
133 140   0   8   9   0  1  0
134 140   0   6   9   0  1  0
135 140   0   8   9   0  1  0
136 140   0   6   9   0  1  0
137 140   0   8   9   0  1  0
138 140   0   6   9   0  1  0
139 140   0   8   9   0  1  0
140 140   0   6   9   0  1  0
141 140   0   8   9   0  1  0
142 140   0   6   9   0  1  0
143 140   0   8   9   0  1  0
144 140   0   6   9   0  1  0
145 140   0   8   9   0  1  0
146 140   0   6   9   0  1  0
147 140   0   8   9   0  1  0
148 140   0   6   9   0  1  0
149 140   0   8   9   0  1  0
150 140   0   6   9   0  1  0
151 140   0   8   9   0  1  0
152 140   0   6   9   0  1  0
153 140   0   8   9   0  1  0
154 140   0   6   9   0  1  0
155 140   0   8   9   0  1  0
156 140   0   6   9   0  1  0
157 140   0   8   9   0  1  0
158 140   0   6   9   0  1  0
159 140   0   8   9   0  1  0
160 140   0   6   9   0  1  0
161 140   0   8   9   0  1  0
162 140   0   6   9   0  1  0
163 140   0   8   9   0  1  0
164 140   0   6   9   0  1  0
165 140   0   8   9   0  1  0
166 140   0   6   9   0  1  0
167 140   0   8   9   0  1  0
168 140   0   6   9   0  1  0
169 140   0   8   9   0  1  0
170 140   0   6   9   0  1  0
171 140   0   8   9   0  1  0
172 140   0   6   9   0  1  0
173 140   0   8   9   0  1  0
174 140   0   6   9   0  1  0
175 140   0   8   9   0  1  0
176 140   0   6   9   0  1  0
177 140   0   8   9   0  1  0
178 140   0   6   9   0  1  0
179 140   0   8   9   0  1  0
180 140   0   6   9   0  1  0
181 140   0   8   9   0  1  0
182 140   0   6   9   0  1  0
183 140   0   8   9   0  1  0
184 140   0   6   9   0  1  0
185 140   0   8   9   0  1  0
186 140   0   6   9   0  1  0
187 140   0   8   9   0  1  0
188 140   0   6   9   0  1  0
189 140   0   8   9   0  1  0
190 140   0   6   9   0  1  0
191 140   0   8   9   0  1  0
192 140   0   6   9   0  1  0
193 140   0   8   9   0  1  0
194 140   0   6   9   0  1  0
195 140   0   8   9   0  1  0
196 140   0   6   9   0  1  0
197 140   0   8   9   0  1  0
198 140   0   6   9   0  1  0
199 140   0   8   9   0  1  0
200 140   0   6   9   0  1  0
201 140   0   8   9   0  1  0
202 140   0   6   9   0  1  0
203 140   0   8  10   0  1  0
204 147   0   0   0  11  0  0

# Format of RF events:
# id amplitude mag_id phase_id time_shape_id delay freq phase
# ..        Hz   ....     ....          ....    us   Hz   rad
[RF]
1      97.6987 1 2 0 100 0 0

# Format of arbitrary gradients:
#   time_shape_id of 0 means default timing (stepping with grad_raster starting at 1/2 of grad_raster)
# id amplitude amp_shape_id time_shape_id delay
# ..      Hz/m       ..         ..          us
[GRADIENTS]
7     -12600.8 3 4 1240
9     -12600.8 5 6 0
10     -12600.8 7 8 0

# Format of trapezoid gradients:
# id amplitude rise flat fall delay
# ..      Hz/m   us   us   us    us
[TRAP]
 1       166667  50 8000  50  50
 2  1.13741e+06 340    0 340   0
 3  -1.1769e+06 350  220 350   0
 4 -1.17124e+06 350   20 350 200
 5     -34722.2  20  280  20   0
 6       734509 220  960 220   0
 8      -734509 220  960 220   0
11  1.19048e+06 350  770 350   0

# Format of ADC events:
# id num dwell delay freq phase
# ..  ..    ns    us   Hz   rad
[ADC]
1 200 5300 170 0 0

# Sequence Shapes
[SHAPES]

shape_id 1
num_samples 8000
2.0002505e-05
6.00225704e-05
0.000100062802
0.00014012331
0.000180204206
0.000220305601
0.000260427606
0.000300570332
0.000340733891
0.000380918394
0.000421123953
0.000461350678
0.000501598683
0.000541868079
0.000582158977
0.00062247149
0.00066280573
0.00070316181
0.00074353984
0.000783939934
0.000824362205
0.000864806764
0.000905273725
0.000945763199
0.000986275301
0.00102681014
0.00106736784
0.0011079485
0.00114855223
0.00118917916
0.0012298294
0.00127050305
0.00131120024
0.00135192107
0.00139266566
0.00143343412
0.00147422656
0.00151504311
0.00155588387
0.00159674895
0.00163763848
0.00167855256
0.00171949131
0.00176045485
0.00180144327
0.00184245671
0.00188349528
0.00192455908
0.00196564824
0.00200676286
0.00204790307
0.00208906897
0.00213026068
0.00217147832
0.00221272199
0.00225399182
0.00229528792
0.0023366104
0.00237795938
0.00241933497
0.00246073728
0.00250216644
0.00254362255
0.00258510573
0.0026266161
0.00266815377
0.00270971885
0.00275131146
0.00279293172
0.00283457973
0.00287625562
0.00291795949
0.00295969147
0.00300145167
0.0030432402
0.00308505717
0.00312690271
0.00316877693
0.00321067994
0.00325261185
0.00329457279
0.00333656286
0.00337858218
0.00342063087
0.00346270903
0.0035048168
0.00354695427
0.00358912156
0.0036313188
0.00367354609
0.00371580355
0.00375809129
0.00380040943
0.00384275808
0.00388513735
0.00392754737
0.00396998824
0.00401246008
0.00405496301
0.00409749714
0.00414006257
0.00418265944
0.00422528785
0.00426794791
0.00431063974
0.00435336346
0.00439611917
0.004438907
0.00448172705
0.00452457944
0.00456746428
0.0046103817
0.00465333179
0.00469631468
0.00473933047
0.00478237929
0.00482546124
0.00486857645
0.00491172501
0.00495490705
0.00499812268
0.00504137201
0.00508465515
0.00512797223
0.00517132334
0.00521470861
0.00525812814
0.00530158206
0.00534507046
0.00538859347
0.0054321512
0.00547574375
0.00551937125
0.0055630338
0.00560673151
0.00565046451
0.00569423289
0.00573803677
0.00578187627
0.00582575149
0.00586966254
0.00591360955
0.00595759261
0.00600161184
0.00604566735
0.00608975925
0.00613388766
0.00617805268
0.00622225442
0.006266493
0.00631076852
0.0063550811
0.00639943084
0.00644381786
0.00648824226
0.00653270416
0.00657720366
0.00662174088
0.00666631591
0.00671092889
0.0067555799
0.00680026906
0.00684499648
0.00688976227
0.00693456654
0.00697940939
0.00702429093
0.00706921128
0.00711417053
0.0071591688
0.0072042062
0.00724928282
0.00729439879
0.00733955421
0.00738474917
0.0074299838
0.0074752582
0.00752057246
0.00756592671
0.00761132105
0.00765675557
0.0077022304
0.00774774563
0.00779330137
0.00783889772
0.00788453479
0.00793021269
0.00797593152
0.00802169138
0.00806749239
0.00811333463
0.00815921822
0.00820514326
0.00825110986
0.00829711812
0.00834316814
0.00838926002
0.00843539387
0.00848156979
0.00852778788
0.00857404825
0.008620351
0.00866669622
0.00871308403
0.00875951452
0.00880598779
0.00885250395
0.00889906309
0.00894566532
0.00899231073
0.00903899944
0.00908573153
0.0091325071
0.00917932627
0.00922618912
0.00927309575
0.00932004627
0.00936704077
0.00941407935
0.00946116211
0.00950828915
0.00955546056
0.00960267644
0.00964993689
0.00969724201
0.00974459189
0.00979198663
0.00983942633
0.00988691108
0.00993444097
0.00998201611
0.0100296366
0.0100773025
0.0101250139
0.010172771
0.0102205738
0.0102684224
0.0103163169
0.0103642573
0.0104122439
0.0104602767
0.0105083557
0.0105564811
0.010604653
0.0106528714
0.0107011365
0.0107494483
0.0107978069
0.0108462125
0.010894665
0.0109431647
0.0109917115
0.0110403056
0.0110889471
0.0111376361
0.0111863725
0.0112351567
0.0112839885
0.0113328681
0.0113817957
0.0114307712
0.0114797948
0.0115288665
0.0115779865
0.0116271548
0.0116763716
0.0117256368
0.0117749506
0.0118243131
0.0118737243
0.0119231844
0.0119726934
0.0120222514
0.0120718585
0.0121215147
0.0121712202
0.0122209751
0.0122707793
0.0123206331
0.0123705364
0.0124204894
0.0124704921
0.0125205447
0.0125706472
0.0126207996
0.0126710021
0.0127212547
0.0127715576
0.0128219107
0.0128723142
0.0129227682
0.0129732727
0.0130238278
0.0130744335
0.0131250901
0.0131757974
0.0132265557
0.0132773649
0.0133282252
0.0133791366
0.0134300992
0.0134811131
0.0135321784
0.0135832951
0.0136344632
0.013685683
0.0137369543
0.0137882774
0.0138396522
0.0138910789
0.0139425576
0.0139940882
0.0140456708
0.0140973056
0.0141489926
0.0142007319
0.0142525234
0.0143043674
0.0143562639
0.0144082128
0.0144602144
0.0145122686
0.0145643756
0.0146165353
0.0146687479
0.0147210135
0.014773332
0.0148257035
0.0148781282
0.014930606
0.0149831371
0.0150357215
0.0150883592
0.0151410503
0.0151937949
0.0152465931
0.0152994448
0.0153523503
0.0154053094
0.0154583223
0.015511389
0.0155645096
0.0156176841
0.0156709127
0.0157241953
0.015777532
0.0158309229
0.015884368
0.0159378674
0.0159914211
0.0160450292
0.0160986917
0.0161524087
0.0162061802
0.0162600064
0.0163138871
0.0163678226
0.0164218128
0.0164758578
0.0165299576
0.0165841123
0.016638322
0.0166925866
0.0167469063
0.0168012811
0.0168557109
0.016910196
0.0169647362
0.0170193317
0.0170739826
0.0171286887
0.0171834503
0.0172382673
0.0172931397
0.0173480677
0.0174030513
0.0174580904
0.0175131852
0.0175683356
0.0176235418
0.0176788038
0.0177341215
0.0177894951
0.0178449245
0.0179004099
0.0179559512
0.0180115485
0.0180672018
0.0181229111
0.0181786765
0.0182344981
0.0182903758
0.0183463097
0.0184022998
0.0184583462
0.0185144488
0.0185706078
0.0186268231
0.0186830947
0.0187394228
0.0187958073
0.0188522483
0.0189087457
0.0189652997
0.0190219102
0.0190785772
0.0191353009
0.0191920812
0.0192489181
0.0193058116
0.0193627619
0.0194197688
0.0194768325
0.019533953
0.0195911302
0.0196483642
0.019705655
0.0197630027
0.0198204072
0.0198778686
0.0199353868
0.019992962
0.0200505941
0.0201082832
0.0201660291
0.0202238321
0.020281692
0.020339609
0.0203975829
0.0204556139
0.0205137019
0.0205718469
0.020630049
0.0206883082
0.0207466244
0.0208049977
0.0208634282
0.0209219157
0.0209804603
0.0210390621
0.0210977209
0.0211564369
0.02121521
0.0212740403
0.0213329277
0.0213918723
0.0214508739
0.0215099328
0.0215690488
0.0216282219
0.0216874522
0.0217467397
0.0218060842
0.021865486
0.0219249449
0.0219844609
0.0220440341
0.0221036644
0.0221633518
0.0222230963
0.022282898
0.0223427568
0.0224026727
0.0224626457
0.0225226757
0.0225827629
0.0226429071
0.0227031084
0.0227633667
0.0228236821
0.0228840545
0.0229444839
0.0230049703
0.0230655137
0.0231261141
0.0231867714
0.0232474856
0.0233082568
0.0233690849
0.0234299699
0.0234909117
0.0235519104
0.0236129659
0.0236740782
0.0237352473
0.0237964732
0.0238577558
0.0239190951
0.0239804911
0.0240419438
0.0241034532
0.0241650191
0.0242266417
0.0242883208
0.0243500565
0.0244118487
0.0244736973
0.0245356024
0.0245975639
0.0246595818
0.0247216561
0.0247837867
0.0248459736
0.0249082167
0.0249705161
0.0250328716
0.0250952833
0.0251577512
0.0252202751
0.025282855
0.0253454909
0.0254081828
0.0254709306
0.0255337343
0.0255965939
0.0256595092
0.0257224803
0.0257855071
0.0258485896
0.0259117277
0.0259749214
0.0260381706
0.0261014753
0.0261648354
0.0262282509
0.0262917217
0.0263552479
0.0264188292
0.0264824658
0.0265461575
0.0266099043
0.0266737061
0.0267375628
0.0268014745
0.0268654411
0.0269294625
0.0269935386
0.0270576694
0.0271218548
0.0271860948
0.0272503894
0.0273147384
0.0273791418
0.0274435995
0.0275081114
0.0275726776
0.027637298
0.0277019724
0.0277667008
0.0278314831
0.0278963194
0.0279612094
0.0280261532
0.0280911506
0.0281562017
0.0282213063
0.0282864643
0.0283516757
0.0284169405
0.0284822584
0.0285476296
0.0286130538
0.028678531
0.0287440612
0.0288096443
0.0288752801
0.0289409686
0.0290067097
0.0290725034
0.0291383495
0.029204248
0.0292701988
0.0293362018
0.0294022569
0.0294683641
0.0295345232
0.0296007342
0.029666997
0.0297333114
0.0297996775
0.029866095
0.029932564
0.0299990844
0.0300656559
0.0301322786
0.0301989524
0.0302656771
0.0303324527
0.030399279
0.030466156
0.0305330836
0.0306000616
0.03066709
0.0307341687
0.0308012976
0.0308684765
0.0309357055
0.0310029842
0.0310703128
0.0311376909
0.0312051187
0.0312725959
0.0313401224
0.0314076981
0.031475323
0.0315429969
0.0316107197
0.0316784913
0.0317463115
0.0318141803
0.0318820976
0.0319500632
0.0320180771
0.032086139
0.0321542489
0.0322224067
0.0322906123
0.0323588655
0.0324271662
0.0324955143
0.0325639097
0.0326323522
0.0327008418
0.0327693782
0.0328379615
0.0329065914
0.0329752678
0.0330439906
0.0331127597
0.0331815749
0.0332504362
0.0333193433
0.0333882962
0.0334572946
0.0335263386
0.033595428
0.0336645625
0.0337337421
0.0338029667
0.0338722361
0.0339415502
0.0340109087
0.0340803117
0.0341497589
0.0342192503
0.0342887856
0.0343583647
0.0344279875
0.0344976539
0.0345673636
0.0346371166
0.0347069127
0.0347767517
0.0348466335
0.034916558
0.034986525
0.0350565343
0.0351265858
0.0351966794
0.0352668148
0.035336992
0.0354072108
0.035477471
0.0355477724
0.035618115
0.0356884985
0.0357589228
0.0358293877
0.0358998931
0.0359704388
0.0360410247
0.0361116505
0.0361823161
0.0362530214
0.0363237661
0.0363945501
0.0364653733
0.0365362355
0.0366071365
0.0366780761
0.0367490542
0.0368200705
0.036891125
0.0369622174
0.0370333475
0.0371045153
0.0371757205
0.0372469629
0.0373182423
0.0373895586
0.0374609116
0.0375323012
0.037603727
0.037675189
0.037746687
0.0378182208
0.0378897901
0.0379613949
0.0380330348
0.0381047098
0.0381764196
0.0382481641
0.0383199431
0.0383917563
0.0384636036
0.0385354847
0.0386073996
0.0386793479
0.0387513296
0.0388233443
0.0388953919
0.0389674723
0.0390395851
0.0391117302
0.0391839075
0.0392561166
0.0393283574
0.0394006297
0.0394729333
0.039545268
0.0396176335
0.0396900297
0.0397624564
0.0398349133
0.0399074002
0.039979917
0.0400524633
0.0401250391
0.040197644
0.040270278
0.0403429406
0.0404156318
0.0404883514
0.040561099
0.0406338745
0.0407066776
0.0407795082
0.0408523661
0.0409252509
0.0409981624
0.0410711006
0.041144065
0.0412170556
0.041290072
0.041363114
0.0414361815
0.0415092741
0.0415823917
0.041655534
0.0417287007
0.0418018918
0.0418751068
0.0419483456
0.042021608
0.0420948936
0.0421682023
0.0422415339
0.042314888
0.0423882645
0.0424616631
0.0425350836
0.0426085256
0.0426819891
0.0427554737
0.0428289791
0.0429025052
0.0429760517
0.0430496183
0.0431232048
0.0431968109
0.0432704364
0.0433440811
0.0434177446
0.0434914267
0.0435651272
0.0436388459
0.0437125823
0.0437863364
0.0438601078
0.0439338963
0.0440077016
0.0440815235
0.0441553616
0.0442292158
0.0443030857
0.0443769712
0.0444508718
0.0445247875
0.0445987178
0.0446726625
0.0447466214
0.0448205942
0.0448945806
0.0449685804
0.0450425932
0.0451166188
0.0451906569
0.0452647072
0.0453387695
0.0454128435
0.045486929
0.0455610255
0.0456351329
0.0457092508
0.045783379
0.0458575172
0.0459316651
0.0460058225
0.046079989
0.0461541643
0.0462283482
0.0463025404
0.0463767405
0.0464509484
0.0465251636
0.0465993859
0.0466736151
0.0467478508
0.0468220927
0.0468963405
0.046970594
0.0470448527
0.0471191166
0.0471933851
0.0472676581
0.0473419352
0.0474162161
0.0474905005
0.0475647882
0.0476390787
0.0477133719
0.0477876674
0.0478619648
0.0479362639
0.0480105644
0.0480848659
0.0481591682
0.0482334709
0.0483077737
0.0483820764
0.0484563785
0.0485306797
0.0486049799
0.0486792785
0.0487535754
0.0488278701
0.0489021625
0.048976452
0.0490507385
0.0491250216
0.049199301
0.0492735763
0.0493478472
0.0494221134
0.0494963746
0.0495706304
0.0496448806
0.0497191247
0.0497933624
0.0498675935
0.0499418175
0.0500160341
0.0500902431
0.050164444
0.0502386365
0.0503128204
0.0503869952
0.0504611605
0.0505353162
0.0506094618
0.0506835969
0.0507577213
0.0508318346
0.0509059364
0.0509800264
0.0510541042
0.0511281696
0.0512022221
0.0512762614
0.0513502872
0.051424299
0.0514982966
0.0515722796
0.0516462476
0.0517202002
0.0517941372
0.0518680582
0.0519419627
0.0520158505
0.0520897212
0.0521635744
0.0522374097
0.0523112268
0.0523850254
0.052458805
0.0525325653
0.052606306
0.0526800266
0.0527537268
0.0528274062
0.0529010645
0.0529747012
0.0530483161
0.0531219086
0.0531954786
0.0532690255
0.053342549
0.0534160488
0.0534895244
0.0535629755
0.0536364017
0.0537098025
0.0537831778
0.0538565269
0.0539298496
0.0540031455
0.0540764142
0.0541496553
0.0542228685
0.0542960532
0.0543692092
0.0544423361
0.0545154334
0.0545885008
0.0546615379
0.0547345442
0.0548075195
0.0548804632
0.054953375
0.0550262546
0.0550991014
0.0551719152
0.0552446955
0.0553174418
0.0553901539
0.0554628313
0.0555354736
0.0556080803
0.0556806512
0.0557531857
0.0558256836
0.0558981443
0.0559705674
0.0560429526
0.0561152995
0.0561876075
0.0562598764
0.0563321057
0.056404295
0.0564764439
0.0565485519
0.0566206187
0.0566926438
0.0567646268
0.0568365673
0.0569084648
0.056980319
0.0570521295
0.0571238957
0.0571956173
0.0572672939
0.057338925
0.0574105102
0.0574820491
0.0575535412
0.0576249862
0.0576963835
0.0577677328
0.0578390336
0.0579102856
0.0579814881
0.058052641
0.0581237436
0.0581947955
0.0582657964
0.0583367458
0.0584076432
0.0584784882
0.0585492804
0.0586200193
0.0586907045
0.0587613355
0.0588319119
0.0589024333
0.0589728991
0.0590433091
0.0591136626
0.0591839593
0.0592541988
0.0593243804
0.0593945039
0.0594645688
0.0595345746
0.0596045208
0.0596744071
0.0597442329
0.0598139978
0.0598837013
0.059953343
0.0600229224
0.0600924391
0.0601618926
0.0602312825
0.0603006082
0.0603698693
0.0604390654
0.060508196
0.0605772606
0.0606462588
0.06071519
0.0607840539
0.06085285
0.0609215777
0.0609902367
0.0610588264
0.0611273463
0.0611957961
0.0612641752
0.0613324832
0.0614007195
0.0614688838
0.0615369755
0.0616049941
0.0616729392
0.0617408103
0.0618086069
0.0618763286
0.0619439748
0.0620115451
0.0620790389
0.0621464559
0.0622137955
0.0622810572
0.0623482405
0.062415345
0.0624823702
0.0625493156
0.0626161806
0.0626829649
0.0627496678
0.062816289
0.0628828279
0.062949284
0.0630156569
0.063081946
0.0631481508
0.0632142709
0.0632803057
0.0633462548
0.0634121176
0.0634778937
0.0635435826
0.0636091836
0.0636746965
0.0637401205
0.0638054553
0.0638707004
0.0639358551
0.0640009191
0.0640658918
0.0641307727
0.0641955613
0.0642602571
0.0643248595
0.0643893681
0.0644537824
0.0645181018
0.0645823258
0.0646464539
0.0647104857
0.0647744205
0.0648382579
0.0649019973
0.0649656382
0.0650291802
0.0650926226
0.065155965
0.0652192068
0.0652823476
0.0653453868
0.0654083238
0.0654711582
0.0655338895
0.065596517
0.0656590403
0.0657214588
0.0657837721
0.0658459796
0.0659080807
0.0659700749
0.0660319618
0.0660937407
0.0661554111
0.0662169726
0.0662784245
0.0663397663
0.0664009976
0.0664621177
0.0665231261
0.0665840223
0.0666448057
0.0667054759
0.0667660322
0.0668264741
0.0668868012
0.0669470127
0.0670071083
0.0670670873
0.0671269493
0.0671866935
0.0672463197
0.067305827
0.0673652151
0.0674244834
0.0674836313
0.0675426583
0.0676015638
0.0676603473
0.0677190083
0.067777546
0.0678359602
0.06789425
0.0679524151
0.0680104549
0.0680683687
0.0681261561
0.0681838165
0.0682413493
0.0682987539
0.0683560299
0.0684131767
0.0684701936
0.0685270801
0.0685838358
0.0686404599
0.0686969519
0.0687533114
0.0688095376
0.0688656301
0.0689215883
0.0689774116
0.0690330994
0.0690886512
0.0691440664
0.0691993445
0.0692544848
0.0693094868
0.0693643499
0.0694190736
0.0694736573
0.0695281004
0.0695824023
0.0696365624
0.0696905803
0.0697444552
0.0697981867
0.0698517741
0.0699052169
0.0699585145
0.0700116663
0.0700646718
0.0701175303
0.0701702412
0.0702228041
0.0702752183
0.0703274832
0.0703795982
0.0704315628
0.0704833763
0.0705350383
0.070586548
0.070637905
0.0706891085
0.0707401582
0.0707910532
0.0708417931
0.0708923773
0.0709428052
0.0709930761
0.0710431895
0.0710931449
0.0711429415
0.0711925788
0.0712420563
0.0712913733
0.0713405292
0.0713895235
0.0714383555
0.0714870246
0.0715355302
0.0715838718
0.0716320488
0.0716800604
0.0717279063
0.0717755856
0.0718230979
0.0718704426
0.0719176189
0.0719646264
0.0720114645
0.0720581324
0.0721046297
0.0721509556
0.0721971097
0.0722430913
0.0722888998
0.0723345345
0.072379995
0.0724252804
0.0724703904
0.0725153242
0.0725600812
0.0726046609
0.0726490626
0.0726932856
0.0727373295
0.0727811935
0.0728248771
0.0728683796
0.0729117005
0.0729548391
0.0729977948
0.073040567
0.073083155
0.0731255583
0.0731677762
0.0732098081
0.0732516534
0.0732933115
0.0733347818
0.0733760635
0.0734171562
0.0734580592
0.0734987718
0.0735392935
0.0735796236
0.0736197615
0.0736597066
0.0736994582
0.0737390158
0.0737783786
0.0738175461
0.0738565177
0.0738952926
0.0739338704
0.0739722503
0.0740104318
0.0740484141
0.0740861967
0.074123779
0.0741611603
0.07419834
0.0742353174
0.0742720919
0.0743086629
0.0743450298
0.0743811919
0.0744171485
0.0744528992
0.0744884431
0.0745237797
0.0745589084
0.0745938285
0.0746285393
0.0746630403
0.0746973308
0.0747314101
0.0747652777
0.0747989328
0.0748323749
0.0748656033
0.0748986173
0.0749314164
0.0749639999
0.0749963671
0.0750285174
0.0750604501
0.0750921647
0.0751236604
0.0751549367
0.0751859929
0.0752168283
0.0752474423
0.0752778342
0.0753080035
0.0753379494
0.0753676713
0.0753971686
0.0754264406
0.0754554867
0.0754843062
0.0755128985
0.0755412629
0.0755693988
0.0755973055
0.0756249824
0.0756524288
0.0756796441
0.0757066277
0.0757333788
0.0757598968
0.0757861811
0.0758122311
0.075838046
0.0758636252
0.0758889681
0.075914074
0.0759389422
0.0759635722
0.0759879632
0.0760121146
0.0760360257
0.0760596959
0.0760831246
0.076106311
0.0761292545
0.0761519545
0.0761744102
0.0761966211
0.0762185865
0.0762403057
0.0762617781
0.076283003
0.0763039797
0.0763247076
0.0763451861
0.0763654144
0.0763853919
0.076405118
0.0764245919
0.0764438131
0.0764627808
0.0764814945
0.0764999533
0.0765181568
0.0765361042
0.0765537948
0.076571228
0.0765884031
0.0766053195
0.0766219764
0.0766383734
0.0766545095
0.0766703843
0.076685997
0.076701347
0.0767164336
0.0767312561
0.0767458139
0.0767601063
0.0767741327
0.0767878923
0.0768013845
0.0768146087
0.0768275641
0.0768402502
0.0768526661
0.0768648114
0.0768766852
0.076888287
0.076899616
0.0769106717
0.0769214532
0.07693196
0.0769421914
0.0769521467
0.0769618252
0.0769712264
0.0769803494
0.0769891936
0.0769977584
0.0770060431
0.077014047
0.0770217695
0.0770292098
0.0770363674
0.0770432414
0.0770498314
0.0770561365
0.0770621561
0.0770678896
0.0770733362
0.0770784953
0.0770833663
0.0770879484
0.077092241
0.0770962434
0.0770999549
0.0771033748
0.0771065026
0.0771093374
0.0771118787
0.0771141257
0.0771160778
0.0771177343
0.0771190946
0.0771201579
0.0771209236
0.077121391
0.0771215594
0.0771214282
0.0771209966
0.0771202641
0.0771192299
0.0771178933
0.0771162537
0.0771143105
0.0771120628
0.0771095101
0.0771066517
0.0771034868
0.0771000149
0.0770962352
0.0770921471
0.0770877498
0.0770830428
0.0770780253
0.0770726967
0.0770670563
0.0770611033
0.0770548372
0.0770482572
0.0770413627
0.077034153
0.0770266274
0.0770187853
0.0770106259
0.0770021486
0.0769933527
0.0769842375
0.0769748024
0.0769650466
0.0769549695
0.0769445705
0.0769338488
0.0769228038
0.0769114347
0.076899741
0.0768877218
0.0768753767
0.0768627048
0.0768497055
0.0768363781
0.076822722
0.0768087364
0.0767944207
0.0767797742
0.0767647962
0.0767494861
0.0767338432
0.0767178667
0.0767015561
0.0766849106
0.0766679296
0.0766506124
0.0766329582
0.0766149665
0.0765966366
0.0765779677
0.0765589592
0.0765396105
0.0765199207
0.0764998894
0.0764795157
0.0764587991
0.0764377387
0.0764163341
0.0763945844
0.076372489
0.0763500473
0.0763272585
0.0763041219
0.076280637
0.076256803
0.0762326192
0.076208085
0.0761831997
0.0761579626
0.0761323731
0.0761064304
0.0760801339
0.0760534829
0.0760264768
0.0759991148
0.0759713963
0.0759433206
0.0759148871
0.075886095
0.0758569437
0.0758274325
0.0757975608
0.0757673278
0.0757367329
0.0757057754
0.0756744547
0.07564277
0.0756107207
0.0755783062
0.0755455257
0.0755123785
0.0754788641
0.0754449817
0.0754107307
0.0753761103
0.07534112
0.075305759
0.0752700266
0.0752339223
0.0751974453
0.0751605949
0.0751233706
0.0750857715
0.0750477971
0.0750094466
0.0749707195
0.074931615
0.0748921324
0.0748522711
0.0748120305
0.0747714098
0.0747304084
0.0746890256
0.0746472607
0.0746051132
0.0745625822
0.0745196672
0.0744763674
0.0744326823
0.0743886111
0.0743441532
0.0742993079
0.0742540745
0.0742084524
0.0741624409
0.0741160394
0.0740692471
0.0740220635
0.0739744877
0.0739265193
0.0738781575
0.0738294017
0.0737802511
0.0737307052
0.0736807633
0.0736304246
0.0735796886
0.0735285546
0.0734770219
0.0734250898
0.0733727578
0.0733200251
0.073266891
0.073213355
0.0731594163
0.0731050743
0.0730503284
0.0729951778
0.072939622
0.0728836602
0.0728272918
0.0727705162
0.0727133326
0.0726557405
0.0725977391
0.0725393279
0.0724805061
0.0724212732
0.0723616284
0.0723015711
0.0722411006
0.0721802163
0.0721189176
0.0720572037
0.0719950741
0.0719325281
0.071869565
0.0718061841
0.0717423849
0.0716781667
0.0716135287
0.0715484705
0.0714829913
0.0714170904
0.0713507673
0.0712840212
0.0712168516
0.0711492578
0.0710812391
0.0710127949
0.0709439245
0.0708746273
0.0708049027
0.07073475
0.0706641685
0.0705931577
0.0705217168
0.0704498453
0.0703775425
0.0703048077
0.0702316403
0.0701580397
0.0700840052
0.0700095362
0.069934632
0.069859292
0.0697835156
0.0697073022
0.069630651
0.0695535614
0.0694760329
0.0693980648
0.0693196564
0.0692408071
0.0691615163
0.0690817833
0.0690016076
0.0689209884
0.0688399251
0.0687584172
0.0686764639
0.0685940647
0.0685112188
0.0684279258
0.0683441849
0.0682599956
0.0681753571
0.0680902689
0.0680047304
0.0679187408
0.0678322997
0.0677454063
0.0676580601
0.0675702603
0.0674820065
0.0673932979
0.067304134
0.067214514
0.0671244375
0.0670339038
0.0669429122
0.0668514621
0.066759553
0.0666671841
0.066574355
0.0664810649
0.0663873132
0.0662930994
0.0661984228
0.0661032828
0.0660076787
0.0659116101
0.0658150762
0.0657180764
0.0656206102
0.0655226769
0.0654242759
0.0653254066
0.0652260684
0.0651262607
0.0650259828
0.0649252342
0.0648240143
0.0647223224
0.064620158
0.0645175204
0.064414409
0.0643108233
0.0642067627
0.0641022264
0.063997214
0.0638917248
0.0637857582
0.0636793137
0.0635723905
0.0634649883
0.0633571062
0.0632487438
0.0631399004
0.0630305755
0.0629207684
0.0628104786
0.0626997054
0.0625884483
0.0624767067
0.06236448
0.0622517676
0.0621385689
0.0620248833
0.0619107102
0.0617960491
0.0616808993
0.0615652603
0.0614491315
0.0613325123
0.0612154022
0.0610978004
0.0609797066
0.0608611199
0.06074204
0.0606224662
0.060502398
0.0603818346
0.0602607757
0.0601392206
0.0600171687
0.0598946194
0.0597715722
0.0596480266
0.0595239818
0.0593994374
0.0592743928
0.0591488475
0.0590228007
0.0588962521
0.058769201
0.0586416468
0.058513589
0.058385027
0.0582559602
0.0581263882
0.0579963102
0.0578657258
0.0577346345
